# wavelength (nm) flux
1.921308991845370429e+03 6.649142848244189441e-01
1.921315507624252405e+03 6.573198513598109693e-01
1.921322175096224555e+03 6.524282321359700099e-01
1.921328757169449773e+03 6.521202921477710079e-01
1.921335357765973640e+03 6.557628347600154006e-01
1.921342006276039456e+03 6.600617514095012961e-01
1.921348539819462985e+03 6.614228036084414120e-01
1.921355254943921636e+03 6.576032683615284924e-01
1.921361756250193139e+03 6.494877434608181677e-01
1.921368468178791090e+03 6.397022106605604330e-01
1.921375004296469569e+03 6.322597405661539716e-01
1.921381648742154312e+03 6.291692681727185654e-01
1.921388251903796117e+03 6.301346810188843683e-01
1.921394828688800999e+03 6.334037809459135415e-01
1.921401499072072056e+03 6.372282095335737306e-01
1.921408008018598593e+03 6.405856238987774898e-01
1.921414745801198251e+03 6.442120121392280740e-01
1.921421246301795009e+03 6.490134079799365630e-01
1.921427932519718297e+03 6.559315243810811547e-01
1.921434492408678580e+03 6.643575045769101184e-01
1.921441110357947764e+03 6.736043423566105970e-01
1.921447738076169571e+03 6.823801759209962015e-01
1.921454287578870208e+03 6.889285717289724831e-01
1.921460983304167939e+03 6.919161008827175996e-01
1.921467483181369062e+03 6.901024978617958938e-01
1.921474209093247055e+03 6.821472753998274463e-01
1.921480727786630723e+03 6.660199129100684567e-01
1.921487384821483829e+03 6.408232047000718135e-01
1.921493971952156926e+03 6.091164318769862751e-01
1.921500559931955650e+03 5.760427963046509392e-01
1.921507215677847171e+03 5.493451841597768448e-01
1.921513734424529048e+03 5.371025396548001485e-01
1.921520458963602550e+03 5.419484802294077808e-01
1.921526958033591654e+03 5.612537169147855387e-01
1.921533652073986104e+03 5.865229383529479978e-01
1.921540200695972317e+03 6.071054151516832587e-01
1.921546825072430238e+03 6.184858516135731676e-01
1.921553442918173459e+03 6.204390487915837360e-01
1.921559997452517791e+03 6.170354305619155655e-01
1.921566684700096630e+03 6.129754946666728932e-01
1.921573183145498660e+03 6.114820373094168593e-01
1.921579912110028090e+03 6.133574030029091961e-01
1.921586424303551439e+03 6.167962929239807490e-01
1.921593082994865426e+03 6.198243006805644884e-01
1.921599665021082274e+03 6.204486979966058469e-01
1.921606253260887343e+03 6.179380244819479007e-01
1.921612905297990437e+03 6.124330744711685703e-01
1.921619422907959915e+03 6.044885306666279989e-01
1.921626145134176795e+03 5.931275519361912663e-01
1.921632642770827943e+03 5.770962532113235177e-01
1.921639333693829258e+03 5.517990458914534546e-01
1.921645881982504079e+03 5.161733662313734428e-01
1.921652501844205744e+03 4.722120578280624148e-01
1.921659120753214893e+03 4.301226094407085698e-01
1.921665669375174502e+03 4.030386618765901541e-01
1.921672359082859884e+03 4.000041481714128877e-01
1.921678856093729792e+03 4.220348392325613540e-01
1.921685577163883636e+03 4.580468237708862356e-01
1.921692093798369115e+03 4.913649404704790724e-01
1.921698743197034673e+03 5.111412031392180699e-01
1.921705331061697734e+03 5.110791364817108828e-01
1.921711908610316868e+03 4.949370881562284996e-01
1.921718567883616743e+03 4.726339861046293667e-01
1.921725073403598117e+03 4.576139313624749683e-01
1.921731804264024959e+03 4.571291224306478496e-01
1.921738300464601252e+03 4.707881399540827516e-01
1.921744977313931486e+03 4.945397620750800471e-01
1.921751536219363743e+03 5.208672500166237063e-01
1.921758140607945506e+03 5.456813485827353150e-01
1.921764771532371242e+03 5.678770436296892710e-01
1.921771303281497921e+03 5.884268347573619051e-01
1.921778006403524159e+03 6.087403527937091940e-01
1.921784501977123909e+03 6.261982831889265633e-01
1.921791204189449672e+03 6.397857687961656659e-01
1.921797736222133381e+03 6.475059190989697067e-01
1.921804365362611406e+03 6.496381934776408462e-01
1.921810970025044298e+03 6.470187183627160721e-01
1.921817525914850876e+03 6.414616574534003357e-01
1.921824203385755027e+03 6.348309734194844678e-01
1.921830698331855274e+03 6.294117082423557052e-01
1.921837423818138859e+03 6.262209981449962104e-01
1.921843931065926654e+03 6.254760057488181202e-01
1.921850582868863512e+03 6.255621435125052754e-01
1.921857163357552508e+03 6.237617658408305399e-01
1.921863741298204786e+03 6.164443694502259596e-01
1.921870395206634385e+03 5.992627023878596138e-01
1.921876899106028759e+03 5.715033446964963293e-01
1.921883626613069964e+03 5.373768844979655013e-01
1.921890120746656748e+03 5.081593344950087188e-01
1.921896793121245310e+03 4.912339472022771436e-01
1.921903351525811104e+03 4.930351661958157217e-01
1.921909949426102230e+03 5.126368239250851389e-01
1.921916581862074963e+03 5.435701945407260816e-01
1.921923105108980508e+03 5.754847498861458410e-01
1.921929811755348055e+03 6.019821408073554592e-01
1.921936305260236395e+03 6.190660618256141889e-01
1.921942996114297330e+03 6.274038514386578447e-01
1.921949534525729632e+03 6.269080831368284423e-01
1.921956150293081464e+03 6.189420491776929101e-01
1.921962763347987675e+03 6.065011134623157218e-01
1.921969303849425614e+03 5.945797065085829392e-01
1.921975991726908660e+03 5.884366088775987436e-01
1.921982484602574914e+03 5.901156444510528010e-01
1.921989191842555329e+03 5.980563950361968972e-01
1.921995712353217641e+03 6.067999238941650386e-01
1.922002343893678017e+03 6.114866960456742939e-01
1.922008939660279339e+03 6.101679096321722673e-01
1.922015495321898015e+03 6.053355989882249766e-01
1.922022166523657688e+03 6.004839507881926108e-01
1.922028658769577532e+03 5.967310438287445340e-01
1.922035380300550287e+03 5.919080286963123161e-01
1.922041885004179676e+03 5.842188904051099918e-01
1.922048530222420595e+03 5.731247468758805530e-01
1.922055110794853135e+03 5.619689045567918262e-01
1.922061679520926646e+03 5.558015035275160054e-01
1.922068336141499003e+03 5.590417966632155178e-01
1.922074828195934288e+03 5.721129046624463532e-01
1.922081561044014961e+03 5.905981150879356933e-01
1.922088052474515962e+03 6.068657473745816544e-01
1.922094709273836543e+03 6.165225977955595127e-01
1.922101276747610882e+03 6.169031584220117104e-01
1.922107856441037029e+03 6.095569043881150506e-01
1.922114500576331011e+03 5.976168740210192620e-01
1.922121002984275492e+03 5.844462625817252732e-01
1.922127723960575167e+03 5.716260983870725676e-01
1.922134214760126724e+03 5.617306635960626071e-01
1.922140881042447290e+03 5.557963797511216164e-01
1.922147437514449393e+03 5.554970060652362207e-01
1.922154026076748323e+03 5.614537514110303773e-01
1.922160659824050754e+03 5.724067168811340922e-01
1.922167170486625309e+03 5.837454499832362975e-01
1.922173881688829397e+03 5.898197079928040321e-01
1.922180371856906049e+03 5.888910012265878846e-01
1.922187045522770859e+03 5.837819919433515636e-01
1.922193593091263665e+03 5.804094557856835923e-01
1.922200188422578549e+03 5.841530433034807235e-01
1.922206813880552772e+03 5.974373308297477037e-01
1.922213330697497895e+03 6.177407609605797267e-01
1.922220034224671736e+03 6.398978805735952013e-01
1.922226523760746886e+03 6.548122891335075302e-01
1.922233202709319812e+03 6.573821642609413152e-01
1.922239743473944827e+03 6.450110501494472626e-01
1.922246343473038905e+03 6.199814347615711929e-01
1.922252962741726833e+03 5.897647940700398994e-01
1.922259483611406267e+03 5.647687336467649422e-01
1.922266181563991495e+03 5.519268612802407104e-01
1.922272670467538774e+03 5.546963327611245109e-01
1.922279352596603985e+03 5.649586973993001582e-01
1.922285888658380600e+03 5.729938295007445115e-01
1.922292491222637864e+03 5.736018790720560645e-01
1.922299106403459518e+03 5.685606106821585737e-01
1.922305629222855487e+03 5.651887309809122684e-01
1.922312323702673893e+03 5.703110889849024590e-01
1.922318811973166248e+03 5.854587381539517743e-01
1.922325495179128666e+03 6.050470759281960653e-01
1.922332028640456656e+03 6.180674950585949290e-01
1.922338631665878893e+03 6.179392964186376513e-01
1.922345244861635820e+03 6.041900959169432817e-01
1.922351767526349022e+03 5.840269783926875791e-01
1.922358460636603013e+03 5.666162949540253235e-01
1.922364948273512027e+03 5.604971644690183163e-01
1.922371630451394367e+03 5.677175341239445450e-01
1.922378163416054122e+03 5.824511997082962855e-01
1.922384764797262505e+03 5.975490431644450151e-01
1.922391378112136181e+03 6.075677498573278656e-01
1.922397898516384430e+03 6.121970637432102569e-01
1.922404592361657933e+03 6.160174188878780877e-01
1.922411079364456782e+03 6.241066864373223666e-01
1.922417758407897736e+03 6.396666083244839651e-01
1.922424292981051849e+03 6.609012991817931892e-01
1.922430890611283075e+03 6.836867818402411201e-01
1.922437506150838544e+03 7.031081370160378041e-01
1.922444022187456767e+03 7.153336942063523995e-01
1.922450718873716141e+03 7.193178114255811550e-01
1.922457205241876181e+03 7.152656624361563020e-01
1.922463879043130873e+03 7.043617188633238824e-01
1.922470417331325052e+03 6.881548590714768876e-01
1.922477009102431566e+03 6.684265245728521210e-01
1.922483628973616987e+03 6.482117459914691349e-01
1.922490138534056086e+03 6.307847181385293212e-01
1.922496840168651261e+03 6.166164578444787159e-01
1.922503325901644075e+03 6.057970496521754011e-01
1.922509992351581559e+03 5.960967596494759491e-01
1.922516536462746444e+03 5.863477134712117289e-01
1.922523120265195530e+03 5.749834205987593982e-01
1.922529746576343086e+03 5.635770693418360455e-01
1.922536247550666985e+03 5.557302857645541883e-01
1.922542956242333275e+03 5.529451231872686279e-01
1.922549441339629084e+03 5.537389319619322459e-01
1.922556098327734389e+03 5.546998258542972238e-01
1.922562650371184191e+03 5.527765032105602661e-01
1.922569224094057518e+03 5.458639660599787780e-01
1.922575858954885234e+03 5.340385346117532128e-01
1.922582349231771104e+03 5.219447544178587028e-01
1.922589067090629442e+03 5.147800360993307622e-01
1.922595551551699828e+03 5.174431250748294797e-01
1.922602196966068959e+03 5.314583583413178269e-01
1.922608759052505775e+03 5.550375684885638927e-01
1.922615320583495532e+03 5.842236572938034334e-01
1.922621966105107958e+03 6.131803435120891654e-01
1.922628450116412523e+03 6.355497656550718188e-01
1.922635166164729981e+03 6.511045670281320197e-01
1.922641656533718560e+03 6.607297305328102555e-01
1.922648288261060543e+03 6.681992852712991260e-01
1.922654862502572769e+03 6.757250442501143706e-01
1.922661409727983937e+03 6.844966044515738979e-01
1.922668068022873740e+03 6.946841612473930727e-01
1.922674551397046571e+03 7.046877265216059394e-01
1.922681252262492762e+03 7.134515742110909553e-01
1.922687756281546626e+03 7.196179030264435728e-01
1.922694372207179867e+03 7.235912521784290119e-01
1.922700960717245152e+03 7.258146305124762998e-01
1.922707491521993234e+03 7.268637865981151247e-01
1.922714164704040286e+03 7.271094814512971682e-01
1.922720647440550010e+03 7.264709310336302517e-01
1.922727331007458815e+03 7.243741382098470849e-01
1.922733850791040368e+03 7.205617907293687674e-01
1.922740448798894477e+03 7.150058145998249293e-01
1.922747053692379268e+03 7.085521844722998397e-01
1.922753565959988009e+03 7.025489870908122603e-01
1.922760256144463710e+03 6.978385920000939047e-01
1.922766738242779638e+03 6.950167721372734198e-01
1.922773402394092273e+03 6.932462191997588175e-01
1.922779940058054763e+03 6.910562542579070655e-01
1.922786518030666002e+03 6.865784295977823692e-01
1.922793141423827592e+03 6.777389110432945341e-01
1.922799633036430578e+03 6.626857723395661592e-01
1.922806342339995808e+03 6.386621376711064668e-01
1.922812823799586340e+03 6.075383661514238698e-01
1.922819466416852947e+03 5.719479459649486897e-01
1.922826024078439787e+03 5.414521501383362523e-01
1.922832579896953575e+03 5.222631061792875062e-01
1.922839223907440555e+03 5.169937622641375130e-01
1.922845704915492433e+03 5.237782127713916935e-01
1.922852411116568874e+03 5.378054983132318778e-01
1.922858904106818954e+03 5.516818065200963517e-01
1.922865523070195650e+03 5.607720935211666369e-01
1.922872102848044278e+03 5.612899598939722345e-01
1.922878634392212462e+03 5.526303739076982025e-01
1.922885301139065177e+03 5.365520932736149717e-01
1.922891781507482619e+03 5.170082560203305144e-01
1.922898462554174557e+03 4.966784879377126316e-01
1.922904979160323592e+03 4.808935555198624034e-01
1.922911572348572008e+03 4.726056081262480779e-01
1.922918176362711620e+03 4.732079402745144048e-01
1.922924681510889741e+03 4.805290234836269159e-01
1.922931373114545067e+03 4.888251320586070592e-01
1.922937852842794200e+03 4.908775489326092645e-01
1.922944506612874193e+03 4.806560715606243983e-01
1.922951048955941360e+03 4.559822659507039022e-01
1.922957614246428193e+03 4.202356119555905045e-01
1.922964244618283828e+03 3.831572778169825555e-01
1.922970723893971808e+03 3.587835038642139818e-01
1.922977437183136999e+03 3.576910955887853127e-01
1.922983918917268738e+03 3.778351114335311567e-01
1.922990543287113496e+03 4.128338347162893163e-01
1.922997113489511776e+03 4.520488976289389615e-01
1.923003648758207646e+03 4.875548852439656744e-01
1.923010307610598375e+03 5.170049902368147876e-01
1.923016786245207641e+03 5.405916646425577010e-01
1.923023468630959542e+03 5.620945839298452373e-01
1.923029979726742113e+03 5.797057737294755153e-01
1.923036572571329543e+03 5.916094686209962816e-01
1.923043172756870263e+03 5.959885099023934929e-01
1.923049675878347671e+03 5.944755006761447413e-01
1.923056365335491364e+03 5.914656103791582353e-01
1.923062843328487588e+03 5.922896614649839631e-01
1.923069492684812985e+03 6.002970143868487929e-01
1.923076035267047700e+03 6.158638083721009737e-01
1.923082594459959182e+03 6.355389807152403980e-01
1.923089226753850426e+03 6.544329328878532026e-01
1.923095704293260042e+03 6.678975101562126815e-01
1.923102409096670726e+03 6.747042622769177100e-01
1.923108895139642073e+03 6.749471774486970332e-01
1.923115509339129630e+03 6.712100478803700865e-01
1.923122085534016151e+03 6.668742636122875211e-01
1.923128608947432667e+03 6.655197540301046599e-01
1.923135275476280412e+03 6.686477196075822915e-01
1.923141752373163854e+03 6.751355260963275429e-01
1.923148420513870406e+03 6.828220227215582305e-01
1.923154941674499469e+03 6.885173405346798337e-01
1.923161518588337003e+03 6.909977139166917359e-01
1.923168130523474701e+03 6.907746294122308894e-01
1.923174616028176160e+03 6.896581511848172141e-01
1.923181318919986779e+03 6.893577312274395963e-01
1.923187795173809491e+03 6.901615004256173025e-01
1.923194424522005193e+03 6.913192896171236335e-01
1.923200982928884514e+03 6.915193942149394646e-01
1.923207520426858309e+03 6.894432560563478196e-01
1.923214170231246726e+03 6.835099784536605716e-01
1.923220646030455100e+03 6.724879436195394522e-01
1.923227326746445669e+03 6.552467187504221746e-01
1.923233832691018506e+03 6.353755731069320456e-01
1.923240421115495792e+03 6.171337474265913281e-01
1.923247018898618990e+03 6.047378711016867525e-01
1.923253514849113571e+03 6.002755740884866409e-01
1.923260204653153096e+03 6.038974474294116490e-01
1.923266679808384652e+03 6.140456553376300031e-01
1.923273318092096588e+03 6.288432577800645573e-01
1.923279864920611544e+03 6.457165548843010194e-01
1.923286410288759043e+03 6.626532665033163516e-01
1.923293049579521039e+03 6.770564497864757225e-01
1.923299524279489333e+03 6.854846011078049584e-01
1.923306211354665038e+03 6.866245685184994008e-01
1.923312708295730090e+03 6.804669783677949058e-01
1.923319302013555671e+03 6.676915839032884215e-01
1.923325891858403793e+03 6.487182617770554938e-01
1.923332392036206556e+03 6.242542032683254805e-01
1.923339074967406077e+03 5.970964307716997155e-01
1.923345549022481237e+03 5.744803910293930782e-01
1.923352190021506885e+03 5.604118348339200972e-01
1.923358731488305011e+03 5.580392277803176704e-01
1.923365278505232482e+03 5.665058608014356123e-01
1.923371913500207484e+03 5.833842184582812562e-01
1.923378387099369093e+03 6.044214459559260622e-01
1.923385074310615892e+03 6.277043669473648668e-01
1.923391568467730849e+03 6.500298254435105116e-01
1.923398161254596971e+03 6.710505399431430096e-01
1.923404749381919828e+03 6.883420524525992734e-01
1.923411247561530899e+03 6.999162739738695738e-01
1.923417929841833484e+03 7.055138854043508934e-01
1.923424402795184051e+03 7.049740743358144934e-01
1.923431040282302774e+03 6.983326768669974038e-01
1.923437582611046309e+03 6.852301505459529318e-01
1.923444125048337355e+03 6.663748350446536683e-01
1.923450761972381997e+03 6.433125330400071284e-01
1.923457234469167133e+03 6.206045333107914619e-01
1.923463915586349231e+03 6.010390926681171697e-01
1.923470413186089445e+03 5.884636478146475502e-01
1.923476998810665691e+03 5.825609045934204699e-01
1.923483591448232801e+03 5.816250197985071146e-01
1.923490081397125095e+03 5.815486005006191839e-01
1.923496769255494883e+03 5.791245040140925449e-01
1.923503241105550387e+03 5.744327638385108292e-01
1.923509868846513427e+03 5.699660084264011051e-01
1.923516418267888184e+03 5.697884164941920959e-01
1.923522949890098516e+03 5.767484755301970356e-01
1.923529594975092095e+03 5.917683791610124366e-01
1.923536066367930971e+03 6.124272880698600208e-01
1.923542735153879448e+03 6.352439629112853758e-01
1.923549242429847482e+03 6.547768143555965370e-01
1.923555814653768493e+03 6.688241357099975470e-01
1.923562418036379313e+03 6.754227037260455146e-01
1.923568893514991260e+03 6.732774552073755858e-01
1.923575593187422555e+03 6.610629707188575566e-01
1.923582063932611391e+03 6.395384106005714830e-01
1.923588675686131864e+03 6.105200840152835706e-01
1.923595238437854960e+03 5.819435631245282181e-01
1.923601753002500800e+03 5.612813997792616139e-01
1.923608412487359146e+03 5.536290625681095090e-01
1.923614882774677199e+03 5.599695793515103714e-01
1.923621532985183194e+03 5.759152240744198625e-01
1.923628056178018824e+03 5.924996802726100187e-01
1.923634608755877025e+03 6.015778762687924441e-01
1.923641229125367090e+03 5.969411116341603041e-01
1.923647698954544694e+03 5.814119691127922485e-01
1.923654386548916364e+03 5.579414945022054262e-01
1.923660871255367283e+03 5.318583712423843313e-01
1.923667460773112907e+03 5.057800718880686164e-01
1.923674043099945038e+03 4.847047301001256581e-01
1.923680534357494480e+03 4.730935342986503644e-01
1.923687214488174959e+03 4.733300012208102037e-01
1.923693683668398080e+03 4.854162910529205566e-01
1.923700309052200737e+03 5.038230006646263748e-01
1.923706854409588686e+03 5.195071555698429489e-01
1.923713381088924734e+03 5.253105108292740466e-01
1.923720024694178619e+03 5.196385247050049339e-01
1.923726493415606456e+03 5.079516020353691541e-01
1.923733153591131895e+03 4.980936641964560097e-01
1.923739663052793503e+03 4.985019127737259081e-01
1.923746224079374997e+03 5.124723913046543844e-01
1.923752832233127492e+03 5.354557255231034985e-01
1.923759300495488333e+03 5.585293748447072160e-01
1.923765994387896853e+03 5.745709239040802663e-01
1.923772469028054957e+03 5.785353787890806787e-01
1.923779063326835058e+03 5.728514054331966809e-01
1.923785637103515455e+03 5.631762360182256399e-01
1.923792131624808007e+03 5.547847521031614715e-01
1.923798804721766601e+03 5.480487411474712633e-01
1.923805272333866014e+03 5.405162528914007058e-01
1.923811898829293341e+03 5.301689449164939116e-01
1.923818439303835930e+03 5.196801543509298460e-01
1.923824965576799286e+03 5.143983339414044398e-01
1.923831605816343654e+03 5.195794881898064821e-01
1.923838072968720780e+03 5.359277066734269290e-01
1.923844730584737817e+03 5.589533888644911963e-01
1.923851238832582567e+03 5.780313191327799416e-01
1.923857795780951619e+03 5.878304929897097963e-01
1.923864404238728866e+03 5.882174865593639002e-01
1.923870870931111540e+03 5.834315600633378507e-01
1.923877558591153502e+03 5.781066791057903886e-01
1.923884035688246740e+03 5.761155364646228794e-01
1.923890622235250248e+03 5.786149811237103480e-01
1.923897199987412932e+03 5.847894799754886908e-01
1.923903685237230093e+03 5.916229009005569139e-01
1.923910363828507343e+03 5.968783149299636825e-01
1.923916829869319599e+03 5.986336301994331643e-01
1.923923444937680870e+03 5.960962884255402994e-01
1.923929993060888364e+03 5.895218334200941213e-01
