# Wlen(nm) Transmission Continuum
1.921347165113983692e+03 9.716031625638846299e-06 8.045588433656813976e-02
1.921353853425548778e+03 1.216792814514043290e-05 8.102669385005277503e-02
1.921360430060572753e+03 1.566599155359728928e-05 8.158674709000113268e-02
1.921367056564595714e+03 2.034851046385502938e-05 8.214981935413878666e-02
1.921373694543111924e+03 2.629930102294351384e-05 8.271263221133297316e-02
1.921380259003728497e+03 3.361988112188278387e-05 8.326799779417312641e-02
1.921386958524198917e+03 4.243255090717141999e-05 8.383354616205028476e-02
1.921393466387852868e+03 5.284727119416613366e-05 8.438171388380742710e-02
1.921400216358550551e+03 6.496828259884470779e-05 8.494902466378202732e-02
1.921406729657530150e+03 7.887302084315619597e-05 8.549523847621023909e-02
1.921413417104147356e+03 9.459382879227028055e-05 8.605482572420651566e-02
1.921419992425497867e+03 1.120980114305299266e-04 8.660381589331056507e-02
1.921426617149345248e+03 1.312945205272029992e-04 8.715571384945687561e-02
1.921433254691650745e+03 1.519948203995312907e-04 8.770745577656847980e-02
1.921439816494003253e+03 1.738704695357588662e-04 8.825169876542833525e-02
1.921446516455883739e+03 1.964488607285558395e-04 8.880616776547699265e-02
1.921453023394816910e+03 2.190963994176856164e-04 8.934347125126858302e-02
1.921459769461058841e+03 2.409965418611774229e-04 8.989928196991438247e-02
1.921466284446960117e+03 2.611330540959896050e-04 9.043485825746976070e-02
1.921472967110648369e+03 2.783470386330812955e-04 9.098299939459002228e-02
1.921479544996925370e+03 2.913166010172749164e-04 9.152134134348961780e-02
1.921486164059211660e+03 2.986311748639959443e-04 9.206184769714924332e-02
1.921492805044606712e+03 2.988998430036872412e-04 9.260293014213387408e-02
1.921499360306608878e+03 2.909767327258348953e-04 9.313583659160581951e-02
1.921506064589898415e+03 2.741859338403214550e-04 9.367963428425839234e-02
1.921512570603177664e+03 2.487052835609321658e-04 9.420616823500398140e-02
1.921519308881865527e+03 2.157800242310830934e-04 9.475027365992186312e-02
1.921525829435700416e+03 1.778180820239384200e-04 9.527561171442919252e-02
1.921532503432659496e+03 1.381347271123719016e-04 9.581210481909005483e-02
1.921539087765575459e+03 1.003895608745343206e-04 9.634019449037210803e-02
1.921545697281800813e+03 6.769476747122747206e-05 9.686911061563828473e-02
1.921552345592696838e+03 4.199274810156854057e-05 9.739992618704769456e-02
1.921558890429148278e+03 2.379883054532333031e-05 9.792130075146851520e-02
1.921565602916958824e+03 1.236634082779551773e-05 9.845481642668331423e-02
1.921572108003650328e+03 6.137067676156406463e-06 9.897067546592980269e-02
1.921578834608569423e+03 3.393548184781859347e-06 9.950288886176519854e-02
1.921585364614463288e+03 2.703640028279876816e-06 1.000183693070965801e-01
1.921592026057777957e+03 3.011136836958322554e-06 1.005430308860110616e-01
1.921598620722158557e+03 3.553548847863427905e-06 1.010612456231049366e-01
1.921605216804705833e+03 3.857035154003375344e-06 1.015783912533403111e-01
1.921611876326629954e+03 3.729446449826505597e-06 1.020993140295329560e-01
1.921618406849211624e+03 3.179980204605300567e-06 1.026089796536052146e-01
1.921625131427771521e+03 2.351155469848995701e-06 1.031325841399873405e-01
1.921631635586940547e+03 1.485039983838269180e-06 1.036378628138317354e-01
1.921638346628757290e+03 8.017851589891609929e-07 1.041580156329832973e-01
1.921644889973952104e+03 3.747774463684605742e-07 1.046640007341524126e-01
1.921651534973586649e+03 1.489727414426299376e-07 1.051766654128680062e-01
1.921658143857375535e+03 4.612289247495900877e-08 1.056853642692348605e-01
1.921664722615508026e+03 9.400478001565864451e-09 1.061905771878196986e-01
1.921671397237105111e+03 1.029700177597186366e-09 1.067019630260269830e-01
1.921677909554379312e+03 4.978692325535442687e-11 1.071997606356292626e-01
1.921684650113033968e+03 3.016170588484268185e-12 1.077138066094362329e-01
1.921691153343743736e+03 2.089814674671109506e-12 1.082085993863453055e-01
1.921697844930003157e+03 2.115676960269770810e-11 1.087165409595616666e-01
1.921704405504861597e+03 6.167948811751182363e-10 1.092133749321151232e-01
1.921711030167658464e+03 9.068187491667881572e-09 1.097138951455542966e-01
1.921717657161919760e+03 7.751492540775935349e-08 1.102134191939976582e-01
1.921724214701777555e+03 4.297962571245514024e-07 1.107065549247731179e-01
1.921730908314812723e+03 1.774224143016601325e-06 1.112087417703181286e-01
1.921737410827196072e+03 5.931343600410053780e-06 1.116954491698775170e-01
1.921744146668161875e+03 1.681814204393893190e-05 1.121984352340212598e-01
1.921750661264748260e+03 4.182420975074676472e-05 1.126837535283135155e-01
1.921757329499870821e+03 9.296040920793746415e-05 1.131793507551613343e-01
1.921763911197876041e+03 1.873794871859930683e-04 1.136673600742010987e-01
1.921770511627554015e+03 3.459729530987408811e-04 1.141556057572915006e-01
1.921777160626473460e+03 5.914539555396541599e-04 1.146462783991247097e-01
1.921783693051070259e+03 9.451077882695911375e-04 1.151272098968013496e-01
1.921790409550433878e+03 1.423901342826405705e-03 1.156205180926769965e-01
1.921796911132694959e+03 2.037342523883891275e-03 1.160969072919027095e-01
1.921803620606344793e+03 2.787537758559729007e-03 1.165873608554807844e-01
1.921810159340632254e+03 3.669144084272812738e-03 1.170641928206272997e-01
1.921816800325909981e+03 4.671302230068503751e-03 1.175473298597533856e-01
1.921823407043673114e+03 5.779696582389244434e-03 1.180268235697446433e-01
1.921829979340820273e+03 6.978530795871325590e-03 1.185026818474378407e-01
1.921836654241711358e+03 8.252463014736845237e-03 1.189848091221815674e-01
1.921843157650932199e+03 9.586570854271808662e-03 1.194534264627032522e-01
1.921849900934640573e+03 1.096806278757668507e-02 1.199381590588715074e-01
1.921856401585841240e+03 1.238594256080273286e-02 1.204043243106203420e-01
1.921863080791040602e+03 1.383106936303897354e-02 1.208821435690137502e-01
1.921869647562064301e+03 1.529458933399394267e-02 1.213507840794287029e-01
1.921876257395659422e+03 1.677001080299281993e-02 1.218213620389443363e-01
1.921882893032918673e+03 1.825176083861024603e-02 1.222926320629952879e-01
1.921889433294991704e+03 1.973322939472340123e-02 1.227560069406185145e-01
1.921896137998297718e+03 2.120821331767231560e-02 1.232298778355312430e-01
1.921902637929154253e+03 2.267033398116484119e-02 1.236881611447865625e-01
1.921909353017137391e+03 2.411392195653958015e-02 1.241604628320099046e-01
1.921915882177296453e+03 2.553384333548433180e-02 1.246185664485037203e-01
1.921922527209778991e+03 2.692762329022175063e-02 1.250836663057119658e-01
1.921929125919703893e+03 2.829578204161175767e-02 1.255443933552082003e-01
1.921935700696645426e+03 2.964409556337706947e-02 1.260023299827651433e-01
1.921942369156270388e+03 3.098193706723684215e-02 1.264656514323821701e-01
1.921948873477593452e+03 3.231859817967967785e-02 1.269164634858997720e-01
1.921955611886889301e+03 3.365940672321458826e-02 1.273823502455588563e-01
1.921962110885016273e+03 3.500063842344754150e-02 1.278305769202120745e-01
1.921968788777363670e+03 3.633016124601132213e-02 1.282900100916543329e-01
1.921975352897713719e+03 3.762806284670981716e-02 1.287404991617671357e-01
1.921981959850075782e+03 3.887015867473862796e-02 1.291928109202631347e-01
1.921988594404203013e+03 4.003320363297334372e-02 1.296458859319615520e-01
1.921995130216380403e+03 4.109831963358206997e-02 1.300911153046207802e-01
1.922001835404377971e+03 4.204658104109279537e-02 1.305467467896223588e-01
1.922008333680866599e+03 4.285500645714628715e-02 1.309872214603459151e-01
1.922015042092595650e+03 4.350002801904312433e-02 1.314408084502498575e-01
1.922021573962589173e+03 4.396595107244572614e-02 1.318813553680492356e-01
1.922028210749464733e+03 4.426572020479645209e-02 1.323278646938222392e-01
1.922034813737736840e+03 4.446904633455434075e-02 1.327709871393028540e-01
1.922041378699436109e+03 4.471000204674965145e-02 1.332104581901584206e-01
1.922048053006202736e+03 4.513823284064866215e-02 1.336561263261604737e-01
1.922054550560487542e+03 4.584853635744404882e-02 1.340889057570697485e-01
1.922061287149651207e+03 4.684502921828186811e-02 1.345364760440056484e-01
1.922067789109969453e+03 4.803609608029893452e-02 1.349673675817613938e-01
1.922074453388986740e+03 4.925249007848214733e-02 1.354079058529777946e-01
1.922081027152508796e+03 5.031279586758372752e-02 1.358413605815592673e-01
1.922087618920934347e+03 5.111313599038678351e-02 1.362749065791882264e-01
1.922094264687999612e+03 5.167099066567437671e-02 1.367108943018265632e-01
1.922100783745351919e+03 5.210407834823840845e-02 1.371374878144645260e-01
1.922107501716335264e+03 5.256254405513356709e-02 1.375759782858833880e-01
1.922113998335489441e+03 5.315743218828997141e-02 1.379989411325495408e-01
1.922120687762812622e+03 5.391948024295507153e-02 1.384333485561242416e-01
1.922127234644154441e+03 5.478848588874885017e-02 1.388574115079271865e-01
1.922133850875045027e+03 5.562772293048236227e-02 1.392848745170709168e-01
1.922140470445402798e+03 5.626763286924600649e-02 1.397114558852139421e-01
1.922147013279255816e+03 5.655290566069273023e-02 1.401320146094296171e-01
1.922153705739128554e+03 5.635931845950871433e-02 1.405610838010449559e-01
1.922160201634781515e+03 5.558480320684778403e-02 1.409764810719339179e-01
1.922166913865109109e+03 5.413498791942632921e-02 1.414046065701053678e-01
1.922173436208303883e+03 5.191555769538116344e-02 1.418195448891697019e-01
1.922180074555933061e+03 4.884049725819245708e-02 1.422407756575357340e-01
1.922186670274042172e+03 4.485563738248631721e-02 1.426582159664955829e-01
1.922193234538243814e+03 3.997741948175635718e-02 1.430725924660849468e-01
1.922199903831889287e+03 3.432591299731204554e-02 1.434925038336836434e-01
1.922206399003474417e+03 2.816565812604178778e-02 1.439003921728198576e-01
1.922213131690039972e+03 2.190313829863989314e-02 1.443220932700111925e-01
1.922219631840585862e+03 1.602684553869794873e-02 1.447281654176064414e-01
1.922226289957759718e+03 1.099572105701467246e-02 1.451430232624492667e-01
1.922232864169544200e+03 7.164421814059856661e-03 1.455515791571706241e-01
1.922239447516475138e+03 4.750241360511895175e-03 1.459596345330492762e-01
1.922246095990243703e+03 3.860328026682101517e-03 1.463706429145851529e-01
1.922252604366044125e+03 4.541706617907731447e-03 1.467719366426731287e-01
1.922259327302577049e+03 6.831913786933441375e-03 1.471853662109338101e-01
1.922265821536623434e+03 1.074966198723540690e-02 1.475836775065875739e-01
1.922272497074681269e+03 1.622760502472549160e-02 1.479920302014155475e-01
1.922279052127533078e+03 2.304385949098768441e-02 1.483919497898920636e-01
1.922285652208105830e+03 3.081217712421985624e-02 1.487935535667078979e-01
1.922292282209814630e+03 3.904124853918868043e-02 1.491959052955853793e-01
1.922298806631891011e+03 4.723324671083493215e-02 1.495908012858567782e-01
1.922305511783361681e+03 5.498511042485269146e-02 1.499955535380005922e-01
1.922312005292039430e+03 6.203434799925489768e-02 1.503864852905307525e-01
1.922318695900849661e+03 6.826653521047891526e-02 1.507882089516277002e-01
1.922325234143628450e+03 7.367550810534155559e-02 1.511797319181257260e-01
1.922331848607286020e+03 7.831510109997601166e-02 1.515747619308550342e-01
1.922338462486221260e+03 8.225509074918049834e-02 1.519686949492592420e-01
1.922345000603590734e+03 8.556106612191567706e-02 1.523570727460668572e-01
1.922351690319709405e+03 8.826986986372921395e-02 1.527533838913743836e-01
1.922358183102450312e+03 9.038133873750375802e-02 1.531369926243625057e-01
1.922364886430412298e+03 9.186935115877339908e-02 1.535319715974693133e-01
1.922371410213446779e+03 9.270183766563080963e-02 1.539153293158701807e-01
1.922378036708161972e+03 9.287220095535668463e-02 1.543036715964216099e-01
1.922384636815077783e+03 9.246206113964784701e-02 1.546894155685887839e-01
1.922391186275285690e+03 9.168264366834932844e-02 1.550711628806395181e-01
1.922397862907236458e+03 9.076897073794033821e-02 1.554592608832369993e-01
1.922404354963470951e+03 8.979686911968512431e-02 1.558356030835068851e-01
1.922411068657512942e+03 8.862037485314315510e-02 1.562237298302945609e-01
1.922417580332602483e+03 8.691382759162699645e-02 1.565991454775714775e-01
1.922424216504874948e+03 8.426457239951072598e-02 1.569806941411883427e-01
1.922430805191998843e+03 8.040470817456250863e-02 1.573584705670215411e-01
1.922437363641118736e+03 7.557200277828056423e-02 1.577334831539666249e-01
1.922444029541552709e+03 7.067554252052084263e-02 1.581135878457545496e-01
1.922450520870712353e+03 6.704323775068858626e-02 1.584827199635190642e-01
1.922457242576289218e+03 6.584713992775131919e-02 1.588638949480619955e-01
1.922463744496704521e+03 6.767414725752045335e-02 1.592315836176168009e-01
1.922470387991562575e+03 7.237441959513640777e-02 1.596062407495365543e-01
1.922476967612592262e+03 7.911501392243940056e-02 1.599762630778199524e-01
1.922483532695224540e+03 8.665090424792347423e-02 1.603444446366967535e-01
1.922490190218268026e+03 9.386687909724378276e-02 1.607167678312111103e-01
1.922496680819781659e+03 1.001473513822334072e-01 1.610787462797804437e-01
1.922503408180875340e+03 1.053531973334402155e-01 1.614528778551379273e-01
1.922509902701360261e+03 1.096049587091761091e-01 1.618130466702991099e-01
1.922516551162358382e+03 1.131255995019089938e-01 1.621807222121821046e-01
1.922523124072464498e+03 1.161149881806157885e-01 1.625431959540905857e-01
1.922529693431735041e+03 1.186833348446917208e-01 1.629044580057984193e-01
1.922536344932986367e+03 1.208761927394379626e-01 1.632692036114294920e-01
1.922542834988862978e+03 1.227272024170531634e-01 1.636240947373328314e-01
1.922549565282818548e+03 1.242680908568031678e-01 1.639910791206306839e-01
1.922556054942173432e+03 1.255257847842130847e-01 1.643439372894428263e-01
1.922562706011389764e+03 1.265310630538532544e-01 1.647045489257262241e-01
1.922569274567217690e+03 1.273163371289262602e-01 1.650596717683733838e-01
1.922575845844777632e+03 1.279100642447124347e-01 1.654139335441412173e-01
1.922582493681308961e+03 1.283336841661529282e-01 1.657712976776573588e-01
1.922588984965421560e+03 1.286023161954653049e-01 1.661192524090164824e-01
1.922595712284341062e+03 1.287247434612365238e-01 1.664788244888525115e-01
1.922602201214743673e+03 1.287048377703162438e-01 1.668246578481609732e-01
1.922608852532780929e+03 1.285413514266378621e-01 1.671781308925545384e-01
1.922615419092451020e+03 1.282269183266137591e-01 1.675260928124597815e-01
1.922621989928474250e+03 1.277488571218844127e-01 1.678732811401621727e-01
1.922628636458834990e+03 1.270913827037213339e-01 1.682234522403785182e-01
1.922635126610928637e+03 1.262380799860489122e-01 1.685643989099271933e-01
1.922641853313788715e+03 1.251735415328492085e-01 1.689167455966159581e-01
1.922648341514667663e+03 1.238909134177469118e-01 1.692556104385990190e-01
1.922654990720651313e+03 1.223988717245996227e-01 1.696018777204494066e-01
1.922661557643760034e+03 1.207118504476866194e-01 1.699428610970867559e-01
1.922668125676943191e+03 1.188304488579372126e-01 1.702829102876977085e-01
1.922674773261157952e+03 1.167324920207227085e-01 1.706260692288413539e-01
1.922681260946382736e+03 1.143711403908142382e-01 1.709599963980950599e-01
1.922687987339847950e+03 1.116691201811030043e-01 1.713051916704806388e-01
1.922694475837538448e+03 1.085265883592865244e-01 1.716371968717010643e-01
1.922701120569116028e+03 1.048443432320968760e-01 1.719761986223264649e-01
1.922707690216736637e+03 1.005348639244456610e-01 1.723103783516816701e-01
1.922714253084298434e+03 9.552450814702102833e-02 1.726432300856334534e-01
1.922720904083869755e+03 8.974446708213627832e-02 1.729795502910159988e-01
1.922727391038593396e+03 8.314012771541499924e-02 1.733066053053461397e-01
1.922734111285340759e+03 7.568391879303279501e-02 1.736444132922005668e-01
1.922740604178946569e+03 6.740432486162752090e-02 1.739698186769620680e-01
1.922747242072285417e+03 5.840652038925111394e-02 1.743015024159459969e-01
1.922753816806970690e+03 4.891607233477764105e-02 1.746290460242062303e-01
1.922760372144648954e+03 3.929983447565517374e-02 1.749546492375712858e-01
1.922767028922558666e+03 3.003397420500794265e-02 1.752842967932513041e-01
1.922773515146208183e+03 2.163413739777138647e-02 1.756045358447060334e-01
1.922780226881354110e+03 1.454687285283973869e-02 1.759349098469334960e-01
1.922786726534478248e+03 9.036816987339381727e-03 1.762538771021026351e-01
1.922793355224265269e+03 5.127561812089578841e-03 1.765781975236243306e-01
1.922799937410047505e+03 2.643088836802572582e-03 1.768992652807498955e-01
1.922806482852098725e+03 1.286277912339277426e-03 1.772175760515888321e-01
1.922813147772809316e+03 7.621180244524383349e-04 1.775407098199846545e-01
1.922819633264811728e+03 9.043192338658146258e-04 1.778541890636254341e-01
1.922826334121990840e+03 1.743224233330108088e-03 1.781770894755302093e-01
1.922832842899716752e+03 3.470050552678637795e-03 1.784897731128791132e-01
1.922839460019157286e+03 6.326300335544049122e-03 1.788066919719240866e-01
1.922846052021549667e+03 1.047761615610174994e-02 1.791214370053632876e-01
1.922852585200748763e+03 1.590527783449149565e-02 1.794324184399927191e-01
1.922859260630201788e+03 2.235468842805463791e-02 1.797491901734875885e-01
1.922865745389984340e+03 2.935091534450183157e-02 1.800559657273519409e-01
1.922872433001349236e+03 3.629421050491185574e-02 1.803713599228929654e-01
1.922878953270241709e+03 4.256467076644478847e-02 1.806779073927818613e-01
1.922885556451057710e+03 4.762254059650792432e-02 1.809873933913882516e-01
1.922892160637054758e+03 5.106112496561177744e-02 1.812959617997254580e-01
1.922898679184694629e+03 5.262293803124930974e-02 1.815995839189633032e-01
1.922905367490315712e+03 5.217317803420130212e-02 1.819101383737443678e-01
1.922911851517303376e+03 4.970801780710647905e-02 1.822102663187057658e-01
1.922918523513523269e+03 4.540302351838283734e-02 1.825181285377391049e-01
1.922925057641630247e+03 3.967162347814093964e-02 1.828186803428502594e-01
1.922931644514059599e+03 3.317402650444399581e-02 1.831207090162820517e-01
1.922938263252139677e+03 2.677358131860375912e-02 1.834232399830225957e-01
1.922944764798027109e+03 2.144160553574872910e-02 1.837194796082479709e-01
1.922951468348724347e+03 1.810032722856733459e-02 1.840239546579711671e-01
1.922957951642344142e+03 1.745765224786025374e-02 1.843174910379019316e-01
1.922964605652602131e+03 1.986414263170485639e-02 1.846178022722073098e-01
1.922971156009454717e+03 2.525350717539865189e-02 1.849124920812690587e-01
1.922977724202251238e+03 3.316393129516127802e-02 1.852070456842507262e-01
1.922984359862375868e+03 4.285533559275797599e-02 1.855036715915419632e-01
1.922990842637611649e+03 5.345033268542075111e-02 1.857925390478797345e-01
1.922997562598206059e+03 6.410481811606220937e-02 1.860910122508563913e-01
1.923004045760675808e+03 7.413946013097702514e-02 1.863780398020764006e-01
1.923010679412671152e+03 8.312697508732970475e-02 1.866707876816833533e-01
1.923017248369285426e+03 9.088565357683424384e-02 1.869597424432954957e-01
1.923023795509715228e+03 9.741562926259471344e-02 1.872468098360134947e-01
1.923030450463332045e+03 1.028176132616301086e-01 1.875376563784779405e-01
1.923036932504216793e+03 1.072388582483856656e-01 1.878200282068493709e-01
1.923043630427168637e+03 1.108313365175848109e-01 1.881108540217246161e-01
1.923050133867865952e+03 1.137301823011348106e-01 1.883923122452240417e-01
1.923056744787809293e+03 1.160508442206604485e-01 1.886774909243808251e-01
1.923063334716688132e+03 1.178847191879553030e-01 1.889608309808376296e-01
1.923069858430530530e+03 1.193028458308159484e-01 1.892404075151549181e-01
1.923076535050573966e+03 1.203615558629062693e-01 1.895255938137206941e-01
1.923083016356531289e+03 1.211049137209079113e-01 1.898015259571340374e-01
1.923089689866995286e+03 1.215654292620645671e-01 1.900847037742022794e-01
1.923096215959479423e+03 1.217671911902338672e-01 1.903607077179050033e-01
